Input File: 02TFSM.78D
Measure Group: Swept Sine
Measurement: Freq. Resp.
Num of extracted Points: 200
Start Freq.: 100 kHz
Stop  Freq.: 1 kHz
Sweep Type: Log
Auto Level: Off
Amplitude:  10.0 mV
Source Ramping: Off
Source Offset:   0.0 mV
Settle Time:   7.8125 ms
Settle Cycles:    1
Integration Time:   15.625 ms
Integration Cycles:   10

    X[Hz]         Mag[dB]     
  1.000000e+03   3.487811e+01 
  1.023411e+03   3.466850e+01 
  1.047371e+03   3.446106e+01 
  1.071891e+03   3.424870e+01 
  1.096986e+03   3.404190e+01 
  1.122668e+03   3.382846e+01 
  1.148951e+03   3.361408e+01 
  1.175850e+03   3.340314e+01 
  1.203378e+03   3.318971e+01 
  1.231551e+03   3.297552e+01 
  1.260383e+03   3.276142e+01 
  1.289890e+03   3.254873e+01 
  1.320088e+03   3.233273e+01 
  1.350994e+03   3.211740e+01 
  1.382622e+03   3.189828e+01 
  1.414991e+03   3.168743e+01 
  1.448118e+03   3.147277e+01 
  1.482021e+03   3.125609e+01 
  1.516717e+03   3.103061e+01 
  1.552225e+03   3.081520e+01 
  1.588565e+03   3.059972e+01 
  1.625756e+03   3.038003e+01 
  1.663817e+03   3.015891e+01 
  1.702769e+03   2.993883e+01 
  1.742633e+03   2.971695e+01 
  1.783431e+03   2.949334e+01 
  1.825183e+03   2.927085e+01 
  1.867914e+03   2.905002e+01 
  1.911644e+03   2.882931e+01 
  1.956398e+03   2.860168e+01 
  2.002200e+03   2.838078e+01 
  2.049075e+03   2.815666e+01 
  2.097046e+03   2.793164e+01 
  2.146141e+03   2.770544e+01 
  2.196385e+03   2.747928e+01 
  2.247806e+03   2.725128e+01 
  2.300430e+03   2.702811e+01 
  2.354286e+03   2.679795e+01 
  2.409404e+03   2.657325e+01 
  2.465811e+03   2.633995e+01 
  2.523539e+03   2.611302e+01 
  2.582619e+03   2.588539e+01 
  2.643082e+03   2.565537e+01 
  2.704960e+03   2.542737e+01 
  2.768287e+03   2.519804e+01 
  2.833096e+03   2.496332e+01 
  2.899423e+03   2.472158e+01 
  2.967302e+03   2.449327e+01 
  3.036771e+03   2.426496e+01 
  3.107866e+03   2.402192e+01 
  3.180626e+03   2.378999e+01 
  3.255089e+03   2.355118e+01 
  3.331295e+03   2.331682e+01 
  3.409285e+03   2.307720e+01 
  3.489101e+03   2.284070e+01 
  3.570786e+03   2.259796e+01 
  3.654383e+03   2.236669e+01 
  3.739937e+03   2.212082e+01 
  3.827494e+03   2.187893e+01 
  3.917102e+03   2.164299e+01 
  4.008806e+03   2.140479e+01 
  4.102658e+03   2.116209e+01 
  4.198707e+03   2.092659e+01 
  4.297005e+03   2.068020e+01 
  4.397604e+03   2.044377e+01 
  4.500558e+03   2.020701e+01 
  4.605922e+03   1.996486e+01 
  4.713753e+03   1.972312e+01 
  4.824109e+03   1.948801e+01 
  4.937048e+03   1.924295e+01 
  5.052631e+03   1.900080e+01 
  5.170920e+03   1.876401e+01 
  5.291979e+03   1.852498e+01 
  5.415872e+03   1.828191e+01 
  5.542665e+03   1.804570e+01 
  5.672426e+03   1.780223e+01 
  5.805226e+03   1.756421e+01 
  5.941134e+03   1.731116e+01 
  6.080224e+03   1.706555e+01 
  6.222571e+03   1.682978e+01 
  6.368250e+03   1.657773e+01 
  6.517340e+03   1.633227e+01 
  6.669919e+03   1.608061e+01 
  6.826072e+03   1.582733e+01 
  6.985880e+03   1.557110e+01 
  7.149429e+03   1.532312e+01 
  7.316807e+03   1.506955e+01 
  7.488104e+03   1.481333e+01 
  7.663411e+03   1.454793e+01 
  7.842822e+03   1.430296e+01 
  8.026434e+03   1.404227e+01 
  8.214344e+03   1.377890e+01 
  8.406653e+03   1.351371e+01 
  8.603465e+03   1.325540e+01 
  8.804884e+03   1.299030e+01 
  9.011019e+03   1.273237e+01 
  9.221979e+03   1.245127e+01 
  9.437878e+03   1.218931e+01 
  9.658832e+03   1.192373e+01 
  9.884959e+03   1.165031e+01 
  1.011638e+04   1.137456e+01 
  1.035322e+04   1.110186e+01 
  1.059560e+04   1.082578e+01 
  1.084366e+04   1.055141e+01 
  1.109753e+04   1.026571e+01 
  1.135733e+04   9.981544e+00 
  1.162322e+04   9.700636e+00 
  1.189534e+04   9.416854e+00 
  1.217383e+04   9.119390e+00 
  1.245883e+04   8.824452e+00 
  1.275051e+04   8.531734e+00 
  1.304902e+04   8.217666e+00 
  1.335452e+04   7.923000e+00 
  1.366716e+04   7.634302e+00 
  1.398713e+04   7.329759e+00 
  1.431459e+04   7.020686e+00 
  1.464971e+04   6.705509e+00 
  1.499268e+04   6.398796e+00 
  1.534368e+04   6.080976e+00 
  1.570290e+04   5.766422e+00 
  1.607053e+04   5.435627e+00 
  1.644676e+04   5.118875e+00 
  1.683180e+04   4.800328e+00 
  1.722586e+04   4.467803e+00 
  1.762914e+04   4.142024e+00 
  1.804186e+04   3.819721e+00 
  1.846425e+04   3.483760e+00 
  1.889652e+04   3.153231e+00 
  1.933892e+04   2.807330e+00 
  1.979167e+04   2.480891e+00 
  2.025502e+04   2.151445e+00 
  2.072922e+04   1.790506e+00 
  2.121452e+04   1.458248e+00 
  2.171118e+04   1.120805e+00 
  2.221947e+04   7.754337e-01 
  2.273966e+04   4.300522e-01 
  2.327203e+04   9.684115e-02 
  2.381686e+04  -2.541033e-01 
  2.437444e+04  -5.943645e-01 
  2.494508e+04  -9.563979e-01 
  2.552908e+04  -1.294700e+00 
  2.612675e+04  -1.650395e+00 
  2.673842e+04  -2.004902e+00 
  2.736440e+04  -2.374227e+00 
  2.800504e+04  -2.708146e+00 
  2.866068e+04  -3.068601e+00 
  2.933166e+04  -3.419060e+00 
  3.001836e+04  -3.758315e+00 
  3.072113e+04  -4.139715e+00 
  3.144036e+04  -4.484758e+00 
  3.217642e+04  -4.858054e+00 
  3.292971e+04  -5.218411e+00 
  3.370064e+04  -5.564348e+00 
  3.448962e+04  -5.932194e+00 
  3.529707e+04  -6.285887e+00 
  3.612343e+04  -6.648398e+00 
  3.696913e+04  -6.994342e+00 
  3.783462e+04  -7.341998e+00 
  3.872039e+04  -7.714457e+00 
  3.962689e+04  -8.098552e+00 
  4.055461e+04  -8.443851e+00 
  4.150405e+04  -8.780827e+00 
  4.247571e+04  -9.147293e+00 
  4.347013e+04  -9.489834e+00 
  4.448783e+04  -9.784869e+00 
  4.552935e+04  -1.018921e+01 
  4.659526e+04  -1.056061e+01 
  4.768612e+04  -1.094596e+01 
  4.880252e+04  -1.125070e+01 
  4.994505e+04  -1.162509e+01 
  5.111434e+04  -1.201063e+01 
  5.231099e+04  -1.232667e+01 
  5.353567e+04  -1.271401e+01 
  5.478901e+04  -1.305166e+01 
  5.607170e+04  -1.339984e+01 
  5.738442e+04  -1.372118e+01 
  5.872787e+04  -1.441778e+01 
  6.010277e+04  -1.431397e+01 
  6.150986e+04  -1.444520e+01 
  6.294989e+04  -1.506915e+01 
  6.442364e+04  -1.525982e+01 
  6.593188e+04  -1.589501e+01 
  6.747544e+04  -1.600418e+01 
  6.905513e+04  -1.641154e+01 
  7.067181e+04  -1.684620e+01 
  7.232634e+04  -1.720238e+01 
  7.401960e+04  -1.755029e+01 
  7.575250e+04  -1.778644e+01 
  7.752598e+04  -1.816862e+01 
  7.934097e+04  -1.848886e+01 
  8.119845e+04  -1.865040e+01 
  8.309942e+04  -1.913877e+01 
  8.504489e+04  -1.931174e+01 
  8.703591e+04  -1.961199e+01 
  8.907355e+04  -1.994983e+01 
  9.115888e+04  -2.038970e+01 
  9.329304e+04  -2.054179e+01 
  9.547716e+04  -2.104112e+01 
  9.771241e+04  -2.098076e+01 
  1.000000e+05  -2.148414e+01 
