Input File: 02TFSM.78D
Measure Group: Swept Sine
Measurement: Freq. Resp.
Num of extracted Points: 200
Start Freq.: 100 kHz
Stop  Freq.: 1 kHz
Sweep Type: Log
Auto Level: Off
Amplitude:  20.0 mV
Source Ramping: Off
Source Offset:   0.0 mV
Settle Time:   7.8125 ms
Settle Cycles:    1
Integration Time:   15.625 ms
Integration Cycles:   10

    X[Hz]         Mag[dB]     
  1.000000e+03   3.730078e+01 
  1.023411e+03   3.710116e+01 
  1.047371e+03   3.688293e+01 
  1.071891e+03   3.668250e+01 
  1.096986e+03   3.646786e+01 
  1.122668e+03   3.625931e+01 
  1.148951e+03   3.604199e+01 
  1.175850e+03   3.583397e+01 
  1.203378e+03   3.562740e+01 
  1.231551e+03   3.540814e+01 
  1.260383e+03   3.519563e+01 
  1.289890e+03   3.498778e+01 
  1.320088e+03   3.477387e+01 
  1.350994e+03   3.456165e+01 
  1.382622e+03   3.435484e+01 
  1.414991e+03   3.412633e+01 
  1.448118e+03   3.391686e+01 
  1.482021e+03   3.369631e+01 
  1.516717e+03   3.347404e+01 
  1.552225e+03   3.326486e+01 
  1.588565e+03   3.305273e+01 
  1.625756e+03   3.283086e+01 
  1.663817e+03   3.262044e+01 
  1.702769e+03   3.240236e+01 
  1.742633e+03   3.217989e+01 
  1.783431e+03   3.194876e+01 
  1.825183e+03   3.172023e+01 
  1.867914e+03   3.149331e+01 
  1.911644e+03   3.127306e+01 
  1.956398e+03   3.105524e+01 
  2.002200e+03   3.082482e+01 
  2.049075e+03   3.060875e+01 
  2.097046e+03   3.038269e+01 
  2.146141e+03   3.015415e+01 
  2.196385e+03   2.993822e+01 
  2.247806e+03   2.970964e+01 
  2.300430e+03   2.948413e+01 
  2.354286e+03   2.925759e+01 
  2.409404e+03   2.903061e+01 
  2.465811e+03   2.880098e+01 
  2.523539e+03   2.856816e+01 
  2.582619e+03   2.833883e+01 
  2.643082e+03   2.811532e+01 
  2.704960e+03   2.788387e+01 
  2.768287e+03   2.765259e+01 
  2.833096e+03   2.741784e+01 
  2.899423e+03   2.718456e+01 
  2.967302e+03   2.696141e+01 
  3.036771e+03   2.672923e+01 
  3.107866e+03   2.650669e+01 
  3.180626e+03   2.627910e+01 
  3.255089e+03   2.603225e+01 
  3.331295e+03   2.580887e+01 
  3.409285e+03   2.557240e+01 
  3.489101e+03   2.533801e+01 
  3.570786e+03   2.510042e+01 
  3.654383e+03   2.487890e+01 
  3.739937e+03   2.463490e+01 
  3.827494e+03   2.440578e+01 
  3.917102e+03   2.416284e+01 
  4.008806e+03   2.394361e+01 
  4.102658e+03   2.370164e+01 
  4.198707e+03   2.346433e+01 
  4.297005e+03   2.323373e+01 
  4.397604e+03   2.300425e+01 
  4.500558e+03   2.276670e+01 
  4.605922e+03   2.252950e+01 
  4.713753e+03   2.229933e+01 
  4.824109e+03   2.204574e+01 
  4.937048e+03   2.180314e+01 
  5.052631e+03   2.156057e+01 
  5.170920e+03   2.132876e+01 
  5.291979e+03   2.109507e+01 
  5.415872e+03   2.085966e+01 
  5.542665e+03   2.061713e+01 
  5.672426e+03   2.038306e+01 
  5.805226e+03   2.012928e+01 
  5.941134e+03   1.988341e+01 
  6.080224e+03   1.964140e+01 
  6.222571e+03   1.940304e+01 
  6.368250e+03   1.916493e+01 
  6.517340e+03   1.891916e+01 
  6.669919e+03   1.865615e+01 
  6.826072e+03   1.841776e+01 
  6.985880e+03   1.817722e+01 
  7.149429e+03   1.791619e+01 
  7.316807e+03   1.768718e+01 
  7.488104e+03   1.742360e+01 
  7.663411e+03   1.717147e+01 
  7.842822e+03   1.692968e+01 
  8.026434e+03   1.665771e+01 
  8.214344e+03   1.640514e+01 
  8.406653e+03   1.614510e+01 
  8.603465e+03   1.587970e+01 
  8.804884e+03   1.564246e+01 
  9.011019e+03   1.537503e+01 
  9.221979e+03   1.511314e+01 
  9.437878e+03   1.483638e+01 
  9.658832e+03   1.456311e+01 
  9.884959e+03   1.430236e+01 
  1.011638e+04   1.402707e+01 
  1.035322e+04   1.376998e+01 
  1.059560e+04   1.348275e+01 
  1.084366e+04   1.321054e+01 
  1.109753e+04   1.292523e+01 
  1.135733e+04   1.264114e+01 
  1.162322e+04   1.236638e+01 
  1.189534e+04   1.208445e+01 
  1.217383e+04   1.180626e+01 
  1.245883e+04   1.151465e+01 
  1.275051e+04   1.120090e+01 
  1.304902e+04   1.093405e+01 
  1.335452e+04   1.062155e+01 
  1.366716e+04   1.034449e+01 
  1.398713e+04   1.002927e+01 
  1.431459e+04   9.725273e+00 
  1.464971e+04   9.433003e+00 
  1.499268e+04   9.108093e+00 
  1.534368e+04   8.823586e+00 
  1.570290e+04   8.507398e+00 
  1.607053e+04   8.193712e+00 
  1.644676e+04   7.889229e+00 
  1.683180e+04   7.567751e+00 
  1.722586e+04   7.233829e+00 
  1.762914e+04   6.921260e+00 
  1.804186e+04   6.580991e+00 
  1.846425e+04   6.247962e+00 
  1.889652e+04   5.944787e+00 
  1.933892e+04   5.603665e+00 
  1.979167e+04   5.261200e+00 
  2.025502e+04   4.959068e+00 
  2.072922e+04   4.615554e+00 
  2.121452e+04   4.279868e+00 
  2.171118e+04   3.914799e+00 
  2.221947e+04   3.593939e+00 
  2.273966e+04   3.244415e+00 
  2.327203e+04   2.921420e+00 
  2.381686e+04   2.586422e+00 
  2.437444e+04   2.200931e+00 
  2.494508e+04   1.859557e+00 
  2.552908e+04   1.419895e+00 
  2.612675e+04   1.153965e+00 
  2.673842e+04   8.154292e-01 
  2.736440e+04   4.632142e-01 
  2.800504e+04   1.227731e-01 
  2.866068e+04  -2.270209e-01 
  2.933166e+04  -5.762936e-01 
  3.001836e+04  -9.292653e-01 
  3.072113e+04  -1.282118e+00 
  3.144036e+04  -1.625957e+00 
  3.217642e+04  -2.027614e+00 
  3.292971e+04  -2.345132e+00 
  3.370064e+04  -2.739539e+00 
  3.448962e+04  -3.054202e+00 
  3.529707e+04  -3.411279e+00 
  3.612343e+04  -3.795154e+00 
  3.696913e+04  -4.171329e+00 
  3.783462e+04  -4.421306e+00 
  3.872039e+04  -4.907509e+00 
  3.962689e+04  -5.323123e+00 
  4.055461e+04  -5.611058e+00 
  4.150405e+04  -5.760067e+00 
  4.247571e+04  -6.323948e+00 
  4.347013e+04  -6.738022e+00 
  4.448783e+04  -7.005033e+00 
  4.552935e+04  -7.155348e+00 
  4.659526e+04  -7.679966e+00 
  4.768612e+04  -8.087181e+00 
  4.880252e+04  -8.594862e+00 
  4.994505e+04  -8.767087e+00 
  5.111434e+04  -9.398837e+00 
  5.231099e+04  -9.367476e+00 
  5.353567e+04  -9.785293e+00 
  5.478901e+04  -1.012318e+01 
  5.607170e+04  -1.042930e+01 
  5.738442e+04  -1.085208e+01 
  5.872787e+04  -1.125406e+01 
  6.010277e+04  -1.149706e+01 
  6.150986e+04  -1.183075e+01 
  6.294989e+04  -1.217971e+01 
  6.442364e+04  -1.258167e+01 
  6.593188e+04  -1.285765e+01 
  6.747544e+04  -1.303391e+01 
  6.905513e+04  -1.356394e+01 
  7.067181e+04  -1.366105e+01 
  7.232634e+04  -1.358992e+01 
  7.401960e+04  -1.435499e+01 
  7.575250e+04  -1.479433e+01 
  7.752598e+04  -1.517302e+01 
  7.934097e+04  -1.523418e+01 
  8.119845e+04  -1.573212e+01 
  8.309942e+04  -1.609059e+01 
  8.504489e+04  -1.617999e+01 
  8.703591e+04  -1.655257e+01 
  8.907355e+04  -1.699704e+01 
  9.115888e+04  -1.712623e+01 
  9.329304e+04  -1.742620e+01 
  9.547716e+04  -1.766735e+01 
  9.771241e+04  -1.813386e+01 
  1.000000e+05  -1.835076e+01 
