Input File: 02TFSD.78D
Measure Group: Swept Sine
Measurement: Freq. Resp.
Num of extracted Points: 200
Start Freq.: 100 kHz
Stop  Freq.: 1 kHz
Sweep Type: Log
Auto Level: Off
Amplitude:  10.0 mV
Source Ramping: Off
Source Offset:   0.0 mV
Settle Time:   7.8125 ms
Settle Cycles:    1
Integration Time:   15.625 ms
Integration Cycles:   10

    X[Hz]          P[deg]     
  1.000000e+03  -9.688250e+01 
  1.023411e+03  -9.710754e+01 
  1.047371e+03  -9.733090e+01 
  1.071891e+03  -9.757315e+01 
  1.096986e+03  -9.779330e+01 
  1.122668e+03  -9.803342e+01 
  1.148951e+03  -9.829520e+01 
  1.175850e+03  -9.851665e+01 
  1.203378e+03  -9.876018e+01 
  1.231551e+03  -9.900394e+01 
  1.260383e+03  -9.926737e+01 
  1.289890e+03  -9.948700e+01 
  1.320088e+03  -9.973505e+01 
  1.350994e+03  -9.996328e+01 
  1.382622e+03  -1.002204e+02 
  1.414991e+03  -1.004765e+02 
  1.448118e+03  -1.007322e+02 
  1.482021e+03  -1.009359e+02 
  1.516717e+03  -1.012590e+02 
  1.552225e+03  -1.015397e+02 
  1.588565e+03  -1.018135e+02 
  1.625756e+03  -1.020719e+02 
  1.663817e+03  -1.023672e+02 
  1.702769e+03  -1.026438e+02 
  1.742633e+03  -1.028865e+02 
  1.783431e+03  -1.031332e+02 
  1.825183e+03  -1.034321e+02 
  1.867914e+03  -1.037026e+02 
  1.911644e+03  -1.039649e+02 
  1.956398e+03  -1.042789e+02 
  2.002200e+03  -1.045486e+02 
  2.049075e+03  -1.048378e+02 
  2.097046e+03  -1.051084e+02 
  2.146141e+03  -1.054161e+02 
  2.196385e+03  -1.056980e+02 
  2.247806e+03  -1.059824e+02 
  2.300430e+03  -1.062916e+02 
  2.354286e+03  -1.066243e+02 
  2.409404e+03  -1.069071e+02 
  2.465811e+03  -1.071862e+02 
  2.523539e+03  -1.075372e+02 
  2.582619e+03  -1.078382e+02 
  2.643082e+03  -1.081421e+02 
  2.704960e+03  -1.084794e+02 
  2.768287e+03  -1.087969e+02 
  2.833096e+03  -1.090920e+02 
  2.899423e+03  -1.094500e+02 
  2.967302e+03  -1.097564e+02 
  3.036771e+03  -1.101261e+02 
  3.107866e+03  -1.104392e+02 
  3.180626e+03  -1.107577e+02 
  3.255089e+03  -1.111056e+02 
  3.331295e+03  -1.114808e+02 
  3.409285e+03  -1.117966e+02 
  3.489101e+03  -1.121274e+02 
  3.570786e+03  -1.124784e+02 
  3.654383e+03  -1.127944e+02 
  3.739937e+03  -1.131557e+02 
  3.827494e+03  -1.134976e+02 
  3.917102e+03  -1.138384e+02 
  4.008806e+03  -1.141535e+02 
  4.102658e+03  -1.145263e+02 
  4.198707e+03  -1.148874e+02 
  4.297005e+03  -1.152611e+02 
  4.397604e+03  -1.155902e+02 
  4.500558e+03  -1.159621e+02 
  4.605922e+03  -1.163626e+02 
  4.713753e+03  -1.167384e+02 
  4.824109e+03  -1.171051e+02 
  4.937048e+03  -1.174889e+02 
  5.052631e+03  -1.179124e+02 
  5.170920e+03  -1.183015e+02 
  5.291979e+03  -1.187464e+02 
  5.415872e+03  -1.191781e+02 
  5.542665e+03  -1.195778e+02 
  5.672426e+03  -1.200163e+02 
  5.805226e+03  -1.204843e+02 
  5.941134e+03  -1.209892e+02 
  6.080224e+03  -1.214653e+02 
  6.222571e+03  -1.219303e+02 
  6.368250e+03  -1.224433e+02 
  6.517340e+03  -1.230125e+02 
  6.669919e+03  -1.234850e+02 
  6.826072e+03  -1.240023e+02 
  6.985880e+03  -1.245739e+02 
  7.149429e+03  -1.251251e+02 
  7.316807e+03  -1.255574e+02 
  7.488104e+03  -1.262265e+02 
  7.663411e+03  -1.267001e+02 
  7.842822e+03  -1.272251e+02 
  8.026434e+03  -1.278768e+02 
  8.214344e+03  -1.284573e+02 
  8.406653e+03  -1.290663e+02 
  8.603465e+03  -1.297002e+02 
  8.804884e+03  -1.302779e+02 
  9.011019e+03  -1.309278e+02 
  9.221979e+03  -1.315551e+02 
  9.437878e+03  -1.321960e+02 
  9.658832e+03  -1.328432e+02 
  9.884959e+03  -1.334599e+02 
  1.011638e+04  -1.341949e+02 
  1.035322e+04  -1.348563e+02 
  1.059560e+04  -1.355590e+02 
  1.084366e+04  -1.362598e+02 
  1.109753e+04  -1.370421e+02 
  1.135733e+04  -1.377385e+02 
  1.162322e+04  -1.384166e+02 
  1.189534e+04  -1.391585e+02 
  1.217383e+04  -1.398685e+02 
  1.245883e+04  -1.406604e+02 
  1.275051e+04  -1.414135e+02 
  1.304902e+04  -1.421914e+02 
  1.335452e+04  -1.429385e+02 
  1.366716e+04  -1.436897e+02 
  1.398713e+04  -1.445284e+02 
  1.431459e+04  -1.452526e+02 
  1.464971e+04  -1.460583e+02 
  1.499268e+04  -1.468815e+02 
  1.534368e+04  -1.476503e+02 
  1.570290e+04  -1.483929e+02 
  1.607053e+04  -1.492583e+02 
  1.644676e+04  -1.500058e+02 
  1.683180e+04  -1.508043e+02 
  1.722586e+04  -1.515399e+02 
  1.762914e+04  -1.523988e+02 
  1.804186e+04  -1.531274e+02 
  1.846425e+04  -1.539571e+02 
  1.889652e+04  -1.547588e+02 
  1.933892e+04  -1.555482e+02 
  1.979167e+04  -1.563211e+02 
  2.025502e+04  -1.570054e+02 
  2.072922e+04  -1.578921e+02 
  2.121452e+04  -1.586110e+02 
  2.171118e+04  -1.593349e+02 
  2.221947e+04  -1.601478e+02 
  2.273966e+04  -1.608389e+02 
  2.327203e+04  -1.616663e+02 
  2.381686e+04  -1.624185e+02 
  2.437444e+04  -1.631779e+02 
  2.494508e+04  -1.640416e+02 
  2.552908e+04  -1.648187e+02 
  2.612675e+04  -1.655803e+02 
  2.673842e+04  -1.662996e+02 
  2.736440e+04  -1.671435e+02 
  2.800504e+04  -1.679390e+02 
  2.866068e+04  -1.685903e+02 
  2.933166e+04  -1.693878e+02 
  3.001836e+04  -1.702183e+02 
  3.072113e+04  -1.709040e+02 
  3.144036e+04  -1.717079e+02 
  3.217642e+04  -1.725000e+02 
  3.292971e+04  -1.733455e+02 
  3.370064e+04  -1.741516e+02 
  3.448962e+04  -1.748138e+02 
  3.529707e+04  -1.756565e+02 
  3.612343e+04  -1.762660e+02 
  3.696913e+04  -1.771592e+02 
  3.783462e+04  -1.780009e+02 
  3.872039e+04  -1.788066e+02 
  3.962689e+04  -1.797005e+02 
  4.055461e+04   1.794612e+02 
  4.150405e+04   1.788075e+02 
  4.247571e+04   1.780016e+02 
  4.347013e+04   1.771719e+02 
  4.448783e+04   1.765640e+02 
  4.552935e+04   1.755330e+02 
  4.659526e+04   1.743771e+02 
  4.768612e+04   1.738116e+02 
  4.880252e+04   1.727696e+02 
  4.994505e+04   1.717652e+02 
  5.111434e+04   1.710147e+02 
  5.231099e+04   1.702750e+02 
  5.353567e+04   1.692979e+02 
  5.478901e+04   1.681374e+02 
  5.607170e+04   1.670009e+02 
  5.738442e+04   1.662152e+02 
  5.872787e+04   1.683074e+02 
  6.010277e+04   1.648699e+02 
  6.150986e+04   1.630191e+02 
  6.294989e+04   1.628515e+02 
  6.442364e+04   1.626953e+02 
  6.593188e+04   1.600681e+02 
  6.747544e+04   1.582117e+02 
  6.905513e+04   1.580324e+02 
  7.067181e+04   1.602589e+02 
  7.232634e+04   1.553660e+02 
  7.401960e+04   1.548436e+02 
  7.575250e+04   1.537674e+02 
  7.752598e+04   1.520584e+02 
  7.934097e+04   1.515648e+02 
  8.119845e+04   1.503344e+02 
  8.309942e+04   1.492611e+02 
  8.504489e+04   1.467876e+02 
  8.703591e+04   1.457720e+02 
  8.907355e+04   1.457330e+02 
  9.115888e+04   1.427298e+02 
  9.329304e+04   1.425247e+02 
  9.547716e+04   1.402461e+02 
  9.771241e+04   1.387997e+02 
  1.000000e+05   1.360202e+02 
