Input File: 20TFSM.78D
Measure Group: Swept Sine
Measurement: Freq. Resp.
Num of extracted Points: 200
Start Freq.: 100 kHz
Stop  Freq.: 1 kHz
Sweep Type: Log
Auto Level: Off
Amplitude:  15.0 mV
Source Ramping: Off
Source Offset:  12.1 mV
Settle Time:   7.8125 ms
Settle Cycles:    1
Integration Time:   15.625 ms
Integration Cycles:   10

    X[Hz]         Mag[dB]     
  1.000000e+03   4.543407e+01 
  1.023411e+03   4.523581e+01 
  1.047371e+03   4.505966e+01 
  1.071891e+03   4.485869e+01 
  1.096986e+03   4.465791e+01 
  1.122668e+03   4.445874e+01 
  1.148951e+03   4.426150e+01 
  1.175850e+03   4.406617e+01 
  1.203378e+03   4.385918e+01 
  1.231551e+03   4.366313e+01 
  1.260383e+03   4.346617e+01 
  1.289890e+03   4.326497e+01 
  1.320088e+03   4.306461e+01 
  1.350994e+03   4.286535e+01 
  1.382622e+03   4.266986e+01 
  1.414991e+03   4.246831e+01 
  1.448118e+03   4.226945e+01 
  1.482021e+03   4.206603e+01 
  1.516717e+03   4.186406e+01 
  1.552225e+03   4.166599e+01 
  1.588565e+03   4.146482e+01 
  1.625756e+03   4.126767e+01 
  1.663817e+03   4.106231e+01 
  1.702769e+03   4.086663e+01 
  1.742633e+03   4.065945e+01 
  1.783431e+03   4.046479e+01 
  1.825183e+03   4.025994e+01 
  1.867914e+03   4.006162e+01 
  1.911644e+03   3.985637e+01 
  1.956398e+03   3.966003e+01 
  2.002200e+03   3.945692e+01 
  2.049075e+03   3.925430e+01 
  2.097046e+03   3.905238e+01 
  2.146141e+03   3.884468e+01 
  2.196385e+03   3.864977e+01 
  2.247806e+03   3.844411e+01 
  2.300430e+03   3.824289e+01 
  2.354286e+03   3.804539e+01 
  2.409404e+03   3.784297e+01 
  2.465811e+03   3.764545e+01 
  2.523539e+03   3.743833e+01 
  2.582619e+03   3.723829e+01 
  2.643082e+03   3.703637e+01 
  2.704960e+03   3.683070e+01 
  2.768287e+03   3.662567e+01 
  2.833096e+03   3.642324e+01 
  2.899423e+03   3.622318e+01 
  2.967302e+03   3.601289e+01 
  3.036771e+03   3.581990e+01 
  3.107866e+03   3.560490e+01 
  3.180626e+03   3.540265e+01 
  3.255089e+03   3.519944e+01 
  3.331295e+03   3.499072e+01 
  3.409285e+03   3.478753e+01 
  3.489101e+03   3.458139e+01 
  3.570786e+03   3.437634e+01 
  3.654383e+03   3.417298e+01 
  3.739937e+03   3.396915e+01 
  3.827494e+03   3.375683e+01 
  3.917102e+03   3.354332e+01 
  4.008806e+03   3.333580e+01 
  4.102658e+03   3.312637e+01 
  4.198707e+03   3.291806e+01 
  4.297005e+03   3.270209e+01 
  4.397604e+03   3.249455e+01 
  4.500558e+03   3.228696e+01 
  4.605922e+03   3.207454e+01 
  4.713753e+03   3.185870e+01 
  4.824109e+03   3.164229e+01 
  4.937048e+03   3.143558e+01 
  5.052631e+03   3.122050e+01 
  5.170920e+03   3.098754e+01 
  5.291979e+03   3.078372e+01 
  5.415872e+03   3.058663e+01 
  5.542665e+03   3.035414e+01 
  5.672426e+03   3.013247e+01 
  5.805226e+03   2.993233e+01 
  5.941134e+03   2.970110e+01 
  6.080224e+03   2.948230e+01 
  6.222571e+03   2.923743e+01 
  6.368250e+03   2.903279e+01 
  6.517340e+03   2.882622e+01 
  6.669919e+03   2.858813e+01 
  6.826072e+03   2.836617e+01 
  6.985880e+03   2.813564e+01 
  7.149429e+03   2.791061e+01 
  7.316807e+03   2.767263e+01 
  7.488104e+03   2.744822e+01 
  7.663411e+03   2.720186e+01 
  7.842822e+03   2.697574e+01 
  8.026434e+03   2.675146e+01 
  8.214344e+03   2.651042e+01 
  8.406653e+03   2.626859e+01 
  8.603465e+03   2.601311e+01 
  8.804884e+03   2.577609e+01 
  9.011019e+03   2.553831e+01 
  9.221979e+03   2.529994e+01 
  9.437878e+03   2.504548e+01 
  9.658832e+03   2.479683e+01 
  9.884959e+03   2.451220e+01 
  1.011638e+04   2.427309e+01 
  1.035322e+04   2.401282e+01 
  1.059560e+04   2.374720e+01 
  1.084366e+04   2.347843e+01 
  1.109753e+04   2.324609e+01 
  1.135733e+04   2.293098e+01 
  1.162322e+04   2.267056e+01 
  1.189534e+04   2.227666e+01 
  1.217383e+04   2.218218e+01 
  1.245883e+04   2.189006e+01 
  1.275051e+04   2.161404e+01 
  1.304902e+04   2.133327e+01 
  1.335452e+04   2.102190e+01 
  1.366716e+04   2.079053e+01 
  1.398713e+04   2.049445e+01 
  1.431459e+04   2.020606e+01 
  1.464971e+04   1.991084e+01 
  1.499268e+04   1.960007e+01 
  1.534368e+04   1.933945e+01 
  1.570290e+04   1.897915e+01 
  1.607053e+04   1.870575e+01 
  1.644676e+04   1.836516e+01 
  1.683180e+04   1.806497e+01 
  1.722586e+04   1.779305e+01 
  1.762914e+04   1.743735e+01 
  1.804186e+04   1.719947e+01 
  1.846425e+04   1.672175e+01 
  1.889652e+04   1.654003e+01 
  1.933892e+04   1.622368e+01 
  1.979167e+04   1.585188e+01 
  2.025502e+04   1.556476e+01 
  2.072922e+04   1.526058e+01 
  2.121452e+04   1.492900e+01 
  2.171118e+04   1.456650e+01 
  2.221947e+04   1.422273e+01 
  2.273966e+04   1.391374e+01 
  2.327203e+04   1.365366e+01 
  2.381686e+04   1.318359e+01 
  2.437444e+04   1.285396e+01 
  2.494508e+04   1.260204e+01 
  2.552908e+04   1.220219e+01 
  2.612675e+04   1.189464e+01 
  2.673842e+04   1.151507e+01 
  2.736440e+04   1.114665e+01 
  2.800504e+04   1.082970e+01 
  2.866068e+04   1.039289e+01 
  2.933166e+04   1.008806e+01 
  3.001836e+04   9.817126e+00 
  3.072113e+04   9.325763e+00 
  3.144036e+04   9.019891e+00 
  3.217642e+04   8.700192e+00 
  3.292971e+04   8.400308e+00 
  3.370064e+04   7.901369e+00 
  3.448962e+04   7.610796e+00 
  3.529707e+04   7.160658e+00 
  3.612343e+04   6.887355e+00 
  3.696913e+04   6.542474e+00 
  3.783462e+04   6.151902e+00 
  3.872039e+04   5.889425e+00 
  3.962689e+04   5.284604e+00 
  4.055461e+04   5.150579e+00 
  4.150405e+04   4.735275e+00 
  4.247571e+04   4.482959e+00 
  4.347013e+04   4.043795e+00 
  4.448783e+04   3.702653e+00 
  4.552935e+04   3.492941e+00 
  4.659526e+04   3.099982e+00 
  4.768612e+04   2.674719e+00 
  4.880252e+04   2.536746e+00 
  4.994505e+04   1.942897e+00 
  5.111434e+04   1.557348e+00 
  5.231099e+04   1.211215e+00 
  5.353567e+04   1.039469e+00 
  5.478901e+04   3.323292e-01 
  5.607170e+04   1.831038e-01 
  5.738442e+04  -1.973224e-01 
  5.872787e+04  -3.538028e-01 
  6.010277e+04  -8.526640e-01 
  6.150986e+04  -1.162668e+00 
  6.294989e+04  -1.501619e+00 
  6.442364e+04  -1.411431e+00 
  6.593188e+04  -2.226465e+00 
  6.747544e+04  -2.646987e+00 
  6.905513e+04  -2.862921e+00 
  7.067181e+04  -2.991917e+00 
  7.232634e+04  -3.186885e+00 
  7.401960e+04  -4.304723e+00 
  7.575250e+04  -3.948109e+00 
  7.752598e+04  -4.513675e+00 
  7.934097e+04  -4.795280e+00 
  8.119845e+04  -5.354596e+00 
  8.309942e+04  -5.865423e+00 
  8.504489e+04  -4.769418e+00 
  8.703591e+04  -5.628681e+00 
  8.907355e+04  -6.273892e+00 
  9.115888e+04  -6.523680e+00 
  9.329304e+04  -7.340244e+00 
  9.547716e+04  -5.588073e+00 
  9.771241e+04  -7.617086e+00 
  1.000000e+05  -8.691710e+00 
